## Yingwei (2021)
##MgSiO3 melting curve

## P[GPa] T[K]
52.439 4683.174
62.905 4937.439
72.794 5160.222
83.852 5390.742
96.078 5628.829
109.478 5855.694
124.048 6088.704
139.788 6321.206
157.283 6558.948
175.950 6793.070
195.205 7015.931
216.215 7243.550
238.981 7472.890
262.918 7700.208
287.444 7916.701
311.973 8123.031
336.504 8319.196
361.039 8503.165
385.576 8681.543
410.115 8849.757
434.655 9013.398
459.200 9162.809
473.371 9252.490
488.886 9346.459
507.530 9458.275
525.821 9568.861
550.369 9706.075
574.917 9841.765
599.467 9972.372
624.018 10099.422
647.403 10209.363
673.124 10339.801
697.677 10457.196
721.204 10583.229
746.787 10684.361
771.342 10793.624
795.898 10902.888
820.455 11007.577
845.013 11110.233
869.571 11211.873
894.130 11309.956
918.690 11407.022
943.249 11503.072
967.810 11595.565
992.370 11687.549
1016.932 11778.009
1041.494 11865.927
1066.056 11952.830
1090.618 12039.732
1115.181 12123.585
1139.744 12206.422
1164.308 12289.258
1187.117 12364.557
























































